#Error on normalization	O = 16.180 %	H = -7.813 %
#Frequence (s-1)	S_O (s)	S_H (s)
0	5.7021e-15	3.9196e-16
1.834e+10	5.0812e-15	3.5335e-16
3.6679e+10	3.354e-15	2.4579e-16
5.5019e+10	8.9748e-16	9.2248e-17
7.3359e+10	-1.7518e-15	-7.4528e-17
9.1698e+10	-4.0152e-15	-2.191e-16
1.1004e+11	-5.3976e-15	-3.1097e-16
1.2838e+11	-5.596e-15	-3.3114e-16
1.4672e+11	-4.5654e-15	-2.762e-16
1.6506e+11	-2.5287e-15	-1.5896e-16
1.834e+11	7.1437e-17	-5.6463e-18
2.0174e+11	2.6691e-15	1.4985e-16
2.2008e+11	4.6986e-15	2.7336e-16
2.3842e+11	5.718e-15	3.3788e-16
2.5676e+11	5.5056e-15	3.2944e-16
2.7509e+11	4.1091e-15	2.501e-16
2.9343e+11	1.835e-15	1.175e-16
3.1177e+11	-8.1734e-16	-3.9031e-17
3.3011e+11	-3.2646e-15	-1.8489e-16
3.4845e+11	-4.9667e-15	-2.878e-16
3.6679e+11	-5.5453e-15	-3.2483e-16
3.8513e+11	-4.8662e-15	-2.8747e-16
4.0347e+11	-3.0701e-15	-1.8349e-16
4.2181e+11	-5.4235e-16	-3.5288e-17
4.4015e+11	2.1706e-15	1.2502e-16
4.5849e+11	4.4797e-15	2.6256e-16
4.7683e+11	5.8823e-15	3.4737e-16
4.9517e+11	6.072e-15	3.6094e-16
5.1351e+11	5.0063e-15	3.0029e-16
5.3185e+11	2.9172e-15	1.787e-16
5.5019e+11	2.6126e-16	2.2811e-17
5.6853e+11	-2.3792e-15	-1.3311e-16
5.8687e+11	-4.4228e-15	-2.5469e-16
6.0521e+11	-5.416e-15	-3.1491e-16
6.2355e+11	-5.1331e-15	-3.0011e-16
6.4189e+11	-3.6264e-15	-2.1296e-16
6.6023e+11	-1.216e-15	-7.2004e-17
6.7857e+11	1.5787e-15	9.2392e-17
6.9691e+11	4.1522e-15	2.4459e-16
7.1525e+11	5.9441e-15	3.5147e-16
7.3359e+11	6.5627e-15	3.8971e-16
7.5193e+11	5.8715e-15	3.509e-16
7.7027e+11	4.0203e-15	2.435e-16
7.886e+11	1.4142e-15	9.1041e-17
8.0694e+11	-1.3732e-15	-7.2913e-17
8.2528e+11	-3.725e-15	-2.1209e-16
8.4362e+11	-5.115e-15	-2.9542e-16
8.6196e+11	-5.2243e-15	-3.0386e-16
8.803e+11	-4.0123e-15	-2.3467e-16
8.9864e+11	-1.7272e-15	-1.0206e-16
9.1698e+11	1.1458e-15	6.5766e-17
9.3532e+11	3.9893e-15	2.3275e-16
9.5366e+11	6.1884e-15	3.6279e-16
9.72e+11	7.2653e-15	4.2773e-16
9.9034e+11	6.9857e-15	4.1351e-16
1.0087e+12	5.4119e-15	3.2344e-16
1.027e+12	2.8926e-15	1.7757e-16
1.0454e+12	-1.1603e-17	8.44e-18
1.0637e+12	-2.649e-15	-1.4599e-16
1.082e+12	-4.4192e-15	-2.506e-16
1.1004e+12	-4.9058e-15	-2.8092e-16
1.1187e+12	-3.97e-15	-2.2859e-16
1.1371e+12	-1.7849e-15	-1.0339e-16
1.1554e+12	1.1985e-15	6.8663e-17
1.1737e+12	4.3467e-15	2.5088e-16
1.1921e+12	6.9803e-15	4.0379e-16
1.2104e+12	8.522e-15	4.938e-16
1.2288e+12	8.6253e-15	5.0067e-16
1.2471e+12	7.2535e-15	4.221e-16
1.2654e+12	4.693e-15	2.7458e-16
1.2838e+12	1.496e-15	9.0019e-17
1.3021e+12	-1.636e-15	-9.0942e-17
1.3205e+12	-4.0022e-15	-2.277e-16
1.3388e+12	-5.0554e-15	-2.885e-16
1.3571e+12	-4.5231e-15	-2.5753e-16
1.3755e+12	-2.4711e-15	-1.3856e-16
1.3938e+12	7.0496e-16	4.5519e-17
1.4122e+12	4.3609e-15	2.5742e-16
1.4305e+12	7.7391e-15	4.5325e-16
1.4488e+12	1.0131e-14	5.9197e-16
1.4672e+12	1.103e-14	6.4422e-16
1.4855e+12	1.0245e-14	5.9886e-16
1.5039e+12	7.9453e-15	4.6562e-16
1.5222e+12	4.6287e-15	2.7318e-16
1.5405e+12	1.0186e-15	6.3293e-17
1.5589e+12	-2.0898e-15	-1.1813e-16
1.5772e+12	-3.9997e-15	-2.3085e-16
1.5955e+12	-4.2651e-15	-2.4906e-16
1.6139e+12	-2.79e-15	-1.6709e-16
1.6322e+12	1.4679e-16	-8.3194e-19
1.6506e+12	3.9475e-15	2.1549e-16
1.6689e+12	7.8215e-15	4.366e-16
1.6872e+12	1.0955e-14	6.1589e-16
1.7056e+12	1.2687e-14	7.156e-16
1.7239e+12	1.2658e-14	7.1509e-16
1.7423e+12	1.0887e-14	6.1559e-16
1.7606e+12	7.7793e-15	4.4018e-16
1.7789e+12	4.0369e-15	2.2896e-16
1.7973e+12	5.1288e-16	3.041e-17
1.8156e+12	-1.9757e-15	-1.0913e-16
1.834e+12	-2.8282e-15	-1.5582e-16
1.8523e+12	-1.7966e-15	-9.5997e-17
1.8706e+12	9.5303e-16	6.0412e-17
1.889e+12	4.8694e-15	2.8166e-16
1.9073e+12	9.1308e-15	5.2084e-16
1.9257e+12	1.2823e-14	7.2611e-16
1.944e+12	1.5144e-14	8.5232e-16
1.9623e+12	1.5588e-14	8.715e-16
1.9807e+12	1.4074e-14	7.8002e-16
1.999e+12	1.0982e-14	6.0047e-16
2.0174e+12	7.0918e-15	3.78e-16
2.0357e+12	3.4305e-15	1.7152e-16
2.054e+12	1.0612e-15	4.1497e-17
2.0724e+12	8.5437e-16	3.6952e-17
2.0907e+12	3.2906e-15	1.8438e-16
2.1091e+12	8.3403e-15	4.8101e-16
2.1274e+12	1.5447e-14	8.9413e-16
2.1457e+12	2.3625e-14	1.3667e-15
2.1641e+12	3.1648e-14	1.8286e-15
2.1824e+12	3.8309e-14	2.2109e-15
2.2008e+12	4.2679e-14	2.4613e-15
2.2191e+12	4.4329e-14	2.5559e-15
2.2374e+12	4.3461e-14	2.5066e-15
2.2558e+12	4.0912e-14	2.3615e-15
2.2741e+12	3.8031e-14	2.1972e-15
2.2925e+12	3.6454e-14	2.1059e-15
2.3108e+12	3.7795e-14	2.1781e-15
2.3291e+12	4.3339e-14	2.4854e-15
2.3475e+12	5.3771e-14	3.0647e-15
2.3658e+12	6.9006e-14	3.9098e-15
2.3842e+12	8.8156e-14	4.9695e-15
2.4025e+12	1.0963e-13	6.1536e-15
2.4208e+12	1.3138e-13	7.3467e-15
2.4392e+12	1.5118e-13	8.4258e-15
2.4575e+12	1.67e-13	9.2793e-15
2.4759e+12	1.7731e-13	9.8245e-15
2.4942e+12	1.813e-13	1.0019e-14
2.5125e+12	1.7894e-13	9.8673e-15
2.5309e+12	1.71e-13	9.4145e-15
2.5492e+12	1.5884e-13	8.7399e-15
2.5676e+12	1.4417e-13	7.9404e-15
2.5859e+12	1.2877e-13	7.1147e-15
2.6042e+12	1.1418e-13	6.3472e-15
2.6226e+12	1.0153e-13	5.6971e-15
2.6409e+12	9.1413e-14	5.1924e-15
2.6592e+12	8.388e-14	4.8306e-15
2.6776e+12	7.8549e-14	4.5847e-15
2.6959e+12	7.4773e-14	4.414e-15
2.7143e+12	7.1836e-14	4.2748e-15
2.7326e+12	6.9139e-14	4.1317e-15
2.7509e+12	6.6321e-14	3.9643e-15
2.7693e+12	6.3309e-14	3.7699e-15
2.7876e+12	6.0287e-14	3.5617e-15
2.806e+12	5.7593e-14	3.3627e-15
2.8243e+12	5.5588e-14	3.1978e-15
2.8426e+12	5.4518e-14	3.086e-15
2.861e+12	5.4417e-14	3.0342e-15
2.8793e+12	5.5074e-14	3.0349e-15
2.8977e+12	5.6068e-14	3.0679e-15
2.916e+12	5.6867e-14	3.1054e-15
2.9343e+12	5.6966e-14	3.1194e-15
2.9527e+12	5.6028e-14	3.0899e-15
2.971e+12	5.3999e-14	3.0102e-15
2.9894e+12	5.1145e-14	2.8909e-15
3.0077e+12	4.8027e-14	2.7575e-15
3.026e+12	4.5389e-14	2.6456e-15
3.0444e+12	4.3993e-14	2.5923e-15
3.0627e+12	4.444e-14	2.6271e-15
3.0811e+12	4.7006e-14	2.7633e-15
3.0994e+12	5.1544e-14	2.993e-15
3.1177e+12	5.7479e-14	3.287e-15
3.1361e+12	6.3893e-14	3.5996e-15
3.1544e+12	6.9707e-14	3.8774e-15
3.1728e+12	7.3903e-14	4.0713e-15
3.1911e+12	7.5769e-14	4.1479e-15
3.2094e+12	7.5081e-14	4.0996e-15
3.2278e+12	7.2214e-14	3.9485e-15
3.2461e+12	6.8122e-14	3.7453e-15
3.2645e+12	6.4204e-14	3.5617e-15
3.2828e+12	6.2069e-14	3.4779e-15
3.3011e+12	6.3237e-14	3.5674e-15
3.3195e+12	6.8845e-14	3.8818e-15
3.3378e+12	7.9398e-14	4.4399e-15
3.3562e+12	9.4641e-14	5.2217e-15
3.3745e+12	1.1356e-13	6.1704e-15
3.3928e+12	1.3454e-13	7.2009e-15
3.4112e+12	1.5561e-13	8.2144e-15
3.4295e+12	1.748e-13	9.1162e-15
3.4479e+12	1.9047e-13	9.8328e-15
3.4662e+12	2.016e-13	1.0325e-14
3.4845e+12	2.0799e-13	1.0596e-14
3.5029e+12	2.1022e-13	1.0688e-14
3.5212e+12	2.0959e-13	1.0675e-14
3.5396e+12	2.078e-13	1.065e-14
3.5579e+12	2.0665e-13	1.07e-14
3.5762e+12	2.0768e-13	1.0897e-14
3.5946e+12	2.1188e-13	1.1276e-14
3.6129e+12	2.1947e-13	1.183e-14
3.6313e+12	2.2993e-13	1.2514e-14
3.6496e+12	2.4204e-13	1.3249e-14
3.6679e+12	2.5418e-13	1.394e-14
3.6863e+12	2.6466e-13	1.4493e-14
3.7046e+12	2.72e-13	1.4832e-14
3.7229e+12	2.7525e-13	1.4917e-14
3.7413e+12	2.7418e-13	1.4746e-14
3.7596e+12	2.6924e-13	1.4359e-14
3.778e+12	2.6149e-13	1.3826e-14
3.7963e+12	2.5234e-13	1.3232e-14
3.8146e+12	2.4326e-13	1.2663e-14
3.833e+12	2.3543e-13	1.2185e-14
3.8513e+12	2.2951e-13	1.1832e-14
3.8697e+12	2.2551e-13	1.1601e-14
3.888e+12	2.2281e-13	1.1453e-14
3.9063e+12	2.2026e-13	1.1321e-14
3.9247e+12	2.1652e-13	1.1131e-14
3.943e+12	2.1031e-13	1.0811e-14
3.9614e+12	2.0078e-13	1.0317e-14
3.9797e+12	1.8769e-13	9.6365e-15
3.998e+12	1.7156e-13	8.7996e-15
4.0164e+12	1.5358e-13	7.872e-15
4.0347e+12	1.355e-13	6.9453e-15
4.0531e+12	1.1922e-13	6.1202e-15
4.0714e+12	1.0654e-13	5.4875e-15
4.0897e+12	9.8756e-14	5.1109e-15
4.1081e+12	9.6455e-14	5.0148e-15
4.1264e+12	9.9359e-14	5.1789e-15
4.1448e+12	1.0638e-13	5.5417e-15
4.1631e+12	1.1583e-13	6.0116e-15
4.1814e+12	1.2566e-13	6.4834e-15
4.1998e+12	1.3391e-13	6.8571e-15
4.2181e+12	1.3899e-13	7.0556e-15
4.2365e+12	1.3997e-13	7.0377e-15
4.2548e+12	1.3672e-13	6.8038e-15
4.2731e+12	1.2991e-13	6.3942e-15
4.2915e+12	1.2084e-13	5.88e-15
4.3098e+12	1.1118e-13	5.3485e-15
4.3282e+12	1.0267e-13	4.8867e-15
4.3465e+12	9.6746e-14	4.5656e-15
4.3648e+12	9.4372e-14	4.4289e-15
4.3832e+12	9.5855e-14	4.4875e-15
4.4015e+12	1.0086e-13	4.7207e-15
4.4199e+12	1.0854e-13	5.084e-15
4.4382e+12	1.1775e-13	5.5199e-15
4.4565e+12	1.273e-13	5.9717e-15
4.4749e+12	1.362e-13	6.3942e-15
4.4932e+12	1.4385e-13	6.7617e-15
4.5116e+12	1.5007e-13	7.0704e-15
4.5299e+12	1.5513e-13	7.3346e-15
4.5482e+12	1.5954e-13	7.5793e-15
4.5666e+12	1.6389e-13	7.8298e-15
4.5849e+12	1.6863e-13	8.1014e-15
4.6033e+12	1.7389e-13	8.3921e-15
4.6216e+12	1.7939e-13	8.6795e-15
4.6399e+12	1.8443e-13	8.9233e-15
4.6583e+12	1.8803e-13	9.0726e-15
4.6766e+12	1.8915e-13	9.077e-15
4.695e+12	1.8686e-13	8.8984e-15
4.7133e+12	1.8067e-13	8.5219e-15
4.7316e+12	1.706e-13	7.9617e-15
4.75e+12	1.5731e-13	7.2621e-15
4.7683e+12	1.42e-13	6.4926e-15
4.7866e+12	1.2627e-13	5.7364e-15
4.805e+12	1.1184e-13	5.0776e-15
4.8233e+12	1.0025e-13	4.5862e-15
4.8417e+12	9.2632e-14	4.3061e-15
4.86e+12	8.9478e-14	4.248e-15
4.8783e+12	9.0588e-14	4.3876e-15
4.8967e+12	9.5113e-14	4.6715e-15
4.915e+12	1.0173e-13	5.0276e-15
4.9334e+12	1.0888e-13	5.3789e-15
4.9517e+12	1.151e-13	5.6583e-15
4.97e+12	1.1923e-13	5.8198e-15
4.9884e+12	1.2065e-13	5.8462e-15
5.0067e+12	1.1934e-13	5.7498e-15
5.0251e+12	1.1583e-13	5.5675e-15
5.0434e+12	1.1104e-13	5.3509e-15
5.0617e+12	1.0609e-13	5.1536e-15
5.0801e+12	1.02e-13	5.0191e-15
5.0984e+12	9.9478e-14	4.9713e-15
5.1168e+12	9.8822e-14	5.01e-15
5.1351e+12	9.9837e-14	5.1121e-15
5.1534e+12	1.0194e-13	5.2387e-15
5.1718e+12	1.0433e-13	5.3459e-15
5.1901e+12	1.0622e-13	5.3967e-15
5.2085e+12	1.0704e-13	5.3724e-15
5.2268e+12	1.0664e-13	5.2788e-15
5.2451e+12	1.0536e-13	5.1483e-15
5.2635e+12	1.0399e-13	5.0341e-15
5.2818e+12	1.036e-13	5.0004e-15
5.3002e+12	1.0538e-13	5.1087e-15
5.3185e+12	1.1028e-13	5.4034e-15
5.3368e+12	1.1883e-13	5.9005e-15
5.3552e+12	1.3095e-13	6.5812e-15
5.3735e+12	1.4591e-13	7.3926e-15
5.3919e+12	1.624e-13	8.2551e-15
5.4102e+12	1.7875e-13	9.0757e-15
5.4285e+12	1.9321e-13	9.7649e-15
5.4469e+12	2.0428e-13	1.0253e-14
5.4652e+12	2.11e-13	1.0505e-14
5.4836e+12	2.1313e-13	1.0525e-14
5.5019e+12	2.1122e-13	1.0359e-14
5.5202e+12	2.0652e-13	1.0084e-14
5.5386e+12	2.0071e-13	9.7957e-15
5.5569e+12	1.9562e-13	9.5872e-15
5.5753e+12	1.9285e-13	9.5325e-15
5.5936e+12	1.9345e-13	9.6714e-15
5.6119e+12	1.9771e-13	1.0001e-14
5.6303e+12	2.0511e-13	1.0475e-14
5.6486e+12	2.144e-13	1.1016e-14
5.667e+12	2.2388e-13	1.1527e-14
5.6853e+12	2.3176e-13	1.1917e-14
5.7036e+12	2.3652e-13	1.2114e-14
5.722e+12	2.373e-13	1.2089e-14
5.7403e+12	2.3414e-13	1.1862e-14
5.7587e+12	2.2803e-13	1.1503e-14
5.777e+12	2.2081e-13	1.112e-14
5.7953e+12	2.1491e-13	1.0846e-14
5.8137e+12	2.1288e-13	1.0811e-14
5.832e+12	2.17e-13	1.1125e-14
5.8503e+12	2.2874e-13	1.1846e-14
5.8687e+12	2.4853e-13	1.2976e-14
5.887e+12	2.7552e-13	1.4453e-14
5.9054e+12	3.0762e-13	1.6152e-14
5.9237e+12	3.4177e-13	1.7907e-14
5.942e+12	3.7434e-13	1.9529e-14
5.9604e+12	4.0158e-13	2.0836e-14
5.9787e+12	4.202e-13	2.1671e-14
5.9971e+12	4.2779e-13	2.1932e-14
6.0154e+12	4.2315e-13	2.1577e-14
6.0337e+12	4.0644e-13	2.0633e-14
6.0521e+12	3.7912e-13	1.9185e-14
6.0704e+12	3.4371e-13	1.7367e-14
6.0888e+12	3.0344e-13	1.534e-14
6.1071e+12	2.6179e-13	1.3269e-14
6.1254e+12	2.2206e-13	1.1306e-14
6.1438e+12	1.8698e-13	9.5732e-15
6.1621e+12	1.5847e-13	8.1527e-15
6.1805e+12	1.3752e-13	7.0832e-15
6.1988e+12	1.2419e-13	6.3636e-15
6.2171e+12	1.1777e-13	5.9613e-15
6.2355e+12	1.17e-13	5.8219e-15
6.2538e+12	1.2034e-13	5.8815e-15
6.2722e+12	1.2619e-13	6.0754e-15
6.2905e+12	1.3312e-13	6.3463e-15
6.3088e+12	1.4002e-13	6.6472e-15
6.3272e+12	1.4609e-13	6.9434e-15
6.3455e+12	1.5089e-13	7.2102e-15
6.3639e+12	1.5427e-13	7.4315e-15
6.3822e+12	1.5625e-13	7.5968e-15
6.4005e+12	1.5701e-13	7.6994e-15
6.4189e+12	1.5673e-13	7.7364e-15
6.4372e+12	1.5564e-13	7.7084e-15
6.4556e+12	1.5393e-13	7.6211e-15
6.4739e+12	1.5181e-13	7.4852e-15
6.4922e+12	1.4946e-13	7.317e-15
6.5106e+12	1.4708e-13	7.1364e-15
6.5289e+12	1.4485e-13	6.9648e-15
6.5473e+12	1.4291e-13	6.8212e-15
6.5656e+12	1.4137e-13	6.719e-15
6.5839e+12	1.4023e-13	6.6633e-15
6.6023e+12	1.3941e-13	6.6491e-15
6.6206e+12	1.3875e-13	6.6631e-15
6.639e+12	1.3804e-13	6.6861e-15
6.6573e+12	1.3711e-13	6.6979e-15
6.6756e+12	1.3584e-13	6.6828e-15
6.694e+12	1.3427e-13	6.6344e-15
6.7123e+12	1.3263e-13	6.559e-15
6.7307e+12	1.3131e-13	6.4759e-15
6.749e+12	1.3083e-13	6.4157e-15
6.7673e+12	1.3176e-13	6.4141e-15
6.7857e+12	1.346e-13	6.5058e-15
6.804e+12	1.3966e-13	6.7165e-15
6.8223e+12	1.4699e-13	7.0562e-15
6.8407e+12	1.5626e-13	7.5153e-15
6.859e+12	1.6685e-13	8.0643e-15
6.8774e+12	1.7787e-13	8.6571e-15
6.8957e+12	1.8831e-13	9.2383e-15
6.914e+12	1.9722e-13	9.7522e-15
6.9324e+12	2.0386e-13	1.0153e-14
6.9507e+12	2.0785e-13	1.0414e-14
6.9691e+12	2.0925e-13	1.053e-14
6.9874e+12	2.0857e-13	1.0522e-14
7.0057e+12	2.0667e-13	1.0432e-14
7.0241e+12	2.0459e-13	1.0312e-14
7.0424e+12	2.0332e-13	1.0218e-14
7.0608e+12	2.0365e-13	1.0196e-14
7.0791e+12	2.059e-13	1.027e-14
7.0974e+12	2.099e-13	1.0439e-14
7.1158e+12	2.1492e-13	1.0676e-14
7.1341e+12	2.1986e-13	1.0931e-14
7.1525e+12	2.2341e-13	1.1142e-14
7.1708e+12	2.2429e-13	1.1247e-14
7.1891e+12	2.2161e-13	1.1198e-14
7.2075e+12	2.1502e-13	1.0973e-14
7.2258e+12	2.0488e-13	1.0583e-14
7.2442e+12	1.9227e-13	1.0072e-14
7.2625e+12	1.7883e-13	9.5144e-15
7.2808e+12	1.6654e-13	8.9988e-15
7.2992e+12	1.5734e-13	8.6159e-15
7.3175e+12	1.5279e-13	8.4394e-15
7.3359e+12	1.5375e-13	8.5107e-15
7.3542e+12	1.6016e-13	8.8284e-15
7.3725e+12	1.7098e-13	9.3452e-15
7.3909e+12	1.8433e-13	9.9726e-15
7.4092e+12	1.9772e-13	1.0594e-14
7.4276e+12	2.0846e-13	1.1082e-14
7.4459e+12	2.1415e-13	1.1324e-14
7.4642e+12	2.1307e-13	1.1237e-14
7.4826e+12	2.0453e-13	1.079e-14
7.5009e+12	1.8906e-13	1.0009e-14
7.5193e+12	1.6838e-13	8.9787e-15
7.5376e+12	1.4515e-13	7.8288e-15
7.5559e+12	1.2262e-13	6.7194e-15
7.5743e+12	1.0411e-13	5.814e-15
7.5926e+12	9.248e-14	5.2548e-15
7.611e+12	8.9683e-14	5.1394e-15
7.6293e+12	9.641e-14	5.5039e-15
7.6476e+12	1.1197e-13	6.3155e-15
7.666e+12	1.3438e-13	7.4763e-15
7.6843e+12	1.6063e-13	8.8364e-15
7.7027e+12	1.8718e-13	1.0216e-14
7.721e+12	2.1044e-13	1.1432e-14
7.7393e+12	2.2736e-13	1.2325e-14
7.7577e+12	2.3582e-13	1.2783e-14
7.776e+12	2.3498e-13	1.2757e-14
7.7944e+12	2.2535e-13	1.2267e-14
7.8127e+12	2.0866e-13	1.1398e-14
7.831e+12	1.8756e-13	1.0287e-14
7.8494e+12	1.6521e-13	9.0976e-15
7.8677e+12	1.4475e-13	7.9981e-15
7.886e+12	1.2884e-13	7.1352e-15
7.9044e+12	1.1929e-13	6.6127e-15
7.9227e+12	1.1681e-13	6.4784e-15
7.9411e+12	1.2101e-13	6.7191e-15
7.9594e+12	1.3047e-13	7.266e-15
7.9777e+12	1.4307e-13	8.0077e-15
7.9961e+12	1.5637e-13	8.8094e-15
8.0144e+12	1.6796e-13	9.5346e-15
8.0328e+12	1.7586e-13	1.0066e-14
8.0511e+12	1.7882e-13	1.0321e-14
8.0694e+12	1.7638e-13	1.0263e-14
8.0878e+12	1.6896e-13	9.9029e-15
8.1061e+12	1.5765e-13	9.2941e-15
8.1245e+12	1.4402e-13	8.5206e-15
8.1428e+12	1.2982e-13	7.6821e-15
8.1611e+12	1.1667e-13	6.8775e-15
8.1795e+12	1.0588e-13	6.1897e-15
8.1978e+12	9.8231e-14	5.6754e-15
8.2162e+12	9.3947e-14	5.3587e-15
8.2345e+12	9.2732e-14	5.2322e-15
8.2528e+12	9.3897e-14	5.2621e-15
8.2712e+12	9.653e-14	5.3976e-15
8.2895e+12	9.9691e-14	5.5823e-15
8.3079e+12	1.0258e-13	5.7646e-15
8.3262e+12	1.0465e-13	5.9062e-15
8.3445e+12	1.0568e-13	5.9873e-15
8.3629e+12	1.0573e-13	6.0072e-15
8.3812e+12	1.051e-13	5.9807e-15
8.3996e+12	1.0419e-13	5.9324e-15
8.4179e+12	1.0339e-13	5.8889e-15
8.4362e+12	1.0299e-13	5.8711e-15
8.4546e+12	1.0307e-13	5.8889e-15
8.4729e+12	1.0349e-13	5.938e-15
8.4913e+12	1.0395e-13	6.0005e-15
8.5096e+12	1.0399e-13	6.0487e-15
8.5279e+12	1.0317e-13	6.0509e-15
8.5463e+12	1.011e-13	5.9785e-15
8.5646e+12	9.7581e-14	5.8124e-15
8.583e+12	9.2629e-14	5.5484e-15
8.6013e+12	8.6511e-14	5.1988e-15
8.6196e+12	7.9701e-14	4.7917e-15
8.638e+12	7.2817e-14	4.3668e-15
8.6563e+12	6.6522e-14	3.9692e-15
8.6747e+12	6.1418e-14	3.642e-15
8.693e+12	5.7954e-14	3.4186e-15
8.7113e+12	5.6355e-14	3.3179e-15
8.7297e+12	5.6585e-14	3.3406e-15
8.748e+12	5.8365e-14	3.4692e-15
8.7664e+12	6.1209e-14	3.6716e-15
8.7847e+12	6.4513e-14	3.9061e-15
8.803e+12	6.7639e-14	4.1285e-15
8.8214e+12	7.0015e-14	4.2991e-15
8.8397e+12	7.1211e-14	4.3891e-15
8.8581e+12	7.0997e-14	4.3841e-15
8.8764e+12	6.9363e-14	4.2859e-15
8.8947e+12	6.6504e-14	4.1108e-15
8.9131e+12	6.278e-14	3.886e-15
8.9314e+12	5.8649e-14	3.6441e-15
8.9497e+12	5.4593e-14	3.4174e-15
8.9681e+12	5.1048e-14	3.2324e-15
8.9864e+12	4.834e-14	3.106e-15
9.0048e+12	4.6645e-14	3.0435e-15
9.0231e+12	4.598e-14	3.039e-15
9.0414e+12	4.621e-14	3.0778e-15
9.0598e+12	4.708e-14	3.1395e-15
9.0781e+12	4.8264e-14	3.2028e-15
9.0965e+12	4.9419e-14	3.249e-15
9.1148e+12	5.0232e-14	3.2653e-15
9.1331e+12	5.0468e-14	3.2458e-15
9.1515e+12	4.9993e-14	3.1919e-15
9.1698e+12	4.8789e-14	3.1108e-15
9.1882e+12	4.6944e-14	3.0131e-15
9.2065e+12	4.4634e-14	2.9101e-15
9.2248e+12	4.209e-14	2.8118e-15
9.2432e+12	3.9568e-14	2.7249e-15
9.2615e+12	3.7306e-14	2.6528e-15
9.2799e+12	3.5506e-14	2.5954e-15
9.2982e+12	3.4301e-14	2.551e-15
9.3165e+12	3.3753e-14	2.5174e-15
9.3349e+12	3.3849e-14	2.4933e-15
9.3532e+12	3.4505e-14	2.4795e-15
9.3716e+12	3.5584e-14	2.4783e-15
9.3899e+12	3.6914e-14	2.4933e-15
9.4082e+12	3.8303e-14	2.5273e-15
9.4266e+12	3.9563e-14	2.5811e-15
9.4449e+12	4.0523e-14	2.6516e-15
9.4633e+12	4.1043e-14	2.7315e-15
9.4816e+12	4.1025e-14	2.8093e-15
9.4999e+12	4.0421e-14	2.8707e-15
9.5183e+12	3.9233e-14	2.9011e-15
9.5366e+12	3.7516e-14	2.8883e-15
9.555e+12	3.5372e-14	2.8254e-15
9.5733e+12	3.2947e-14	2.7128e-15
9.5916e+12	3.0413e-14	2.5593e-15
9.61e+12	2.7962e-14	2.3811e-15
9.6283e+12	2.5781e-14	2.2001e-15
9.6467e+12	2.4037e-14	2.04e-15
9.665e+12	2.2859e-14	1.9229e-15
9.6833e+12	2.2317e-14	1.8647e-15
9.7017e+12	2.2415e-14	1.8727e-15
9.72e+12	2.3085e-14	1.9434e-15
9.7384e+12	2.4191e-14	2.0631e-15
9.7567e+12	2.5546e-14	2.2097e-15
9.775e+12	2.6927e-14	2.3566e-15
9.7934e+12	2.8106e-14	2.4771e-15
9.8117e+12	2.8881e-14	2.5489e-15
9.8301e+12	2.9099e-14	2.5579e-15
9.8484e+12	2.8681e-14	2.5006e-15
9.8667e+12	2.7631e-14	2.3845e-15
9.8851e+12	2.6038e-14	2.2266e-15
9.9034e+12	2.4062e-14	2.0501e-15
9.9218e+12	2.1912e-14	1.8802e-15
9.9401e+12	1.9814e-14	1.7394e-15
9.9584e+12	1.7979e-14	1.6441e-15
9.9768e+12	1.6573e-14	1.6016e-15
9.9951e+12	1.5689e-14	1.6094e-15
1.0013e+13	1.5341e-14	1.6563e-15
1.0032e+13	1.546e-14	1.7251e-15
1.005e+13	1.5911e-14	1.7961e-15
1.0068e+13	1.6516e-14	1.8509e-15
1.0087e+13	1.7084e-14	1.8763e-15
1.0105e+13	1.7447e-14	1.8661e-15
1.0123e+13	1.7483e-14	1.822e-15
1.0142e+13	1.7139e-14	1.7528e-15
1.016e+13	1.6433e-14	1.6722e-15
1.0179e+13	1.5452e-14	1.5954e-15
1.0197e+13	1.4332e-14	1.5365e-15
1.0215e+13	1.3231e-14	1.5049e-15
1.0234e+13	1.2305e-14	1.5042e-15
1.0252e+13	1.1674e-14	1.5317e-15
1.027e+13	1.1408e-14	1.5792e-15
1.0289e+13	1.1514e-14	1.635e-15
1.0307e+13	1.1939e-14	1.6868e-15
1.0325e+13	1.2581e-14	1.7241e-15
1.0344e+13	1.331e-14	1.7403e-15
1.0362e+13	1.3991e-14	1.7337e-15
1.038e+13	1.4511e-14	1.7076e-15
1.0399e+13	1.4794e-14	1.6692e-15
1.0417e+13	1.481e-14	1.6276e-15
1.0435e+13	1.458e-14	1.5915e-15
1.0454e+13	1.4162e-14	1.5675e-15
1.0472e+13	1.3638e-14	1.5587e-15
1.049e+13	1.3096e-14	1.564e-15
1.0509e+13	1.2609e-14	1.5791e-15
1.0527e+13	1.2227e-14	1.5976e-15
1.0545e+13	1.1964e-14	1.6128e-15
1.0564e+13	1.1807e-14	1.6199e-15
1.0582e+13	1.1717e-14	1.6166e-15
1.06e+13	1.1648e-14	1.6043e-15
1.0619e+13	1.156e-14	1.5875e-15
1.0637e+13	1.1431e-14	1.5726e-15
1.0655e+13	1.1265e-14	1.5662e-15
1.0674e+13	1.1091e-14	1.5734e-15
1.0692e+13	1.0959e-14	1.5961e-15
1.071e+13	1.0922e-14	1.6325e-15
1.0729e+13	1.1029e-14	1.6772e-15
1.0747e+13	1.1303e-14	1.7219e-15
1.0765e+13	1.1737e-14	1.7579e-15
1.0784e+13	1.2284e-14	1.7776e-15
1.0802e+13	1.2869e-14	1.7765e-15
1.082e+13	1.3393e-14	1.7548e-15
1.0839e+13	1.3759e-14	1.7172e-15
1.0857e+13	1.3884e-14	1.6722e-15
1.0875e+13	1.3721e-14	1.6308e-15
1.0894e+13	1.3267e-14	1.6037e-15
1.0912e+13	1.2569e-14	1.599e-15
1.093e+13	1.1718e-14	1.6208e-15
1.0949e+13	1.0833e-14	1.6673e-15
1.0967e+13	1.0038e-14	1.7315e-15
1.0985e+13	9.4477e-15	1.8026e-15
1.1004e+13	9.1375e-15	1.8678e-15
1.1022e+13	9.1353e-15	1.9153e-15
1.104e+13	9.4147e-15	1.9367e-15
1.1059e+13	9.8993e-15	1.9291e-15
1.1077e+13	1.0477e-14	1.896e-15
1.1095e+13	1.1021e-14	1.8461e-15
1.1114e+13	1.1413e-14	1.7924e-15
